# 18/12/2020 - 13:45:33
# First line : dt
# Next lines : wavelength ramps[V], iodine signal[V], lockin signal[V], laser power[mW]
2.200000000E-2	NaN	NaN	NaN
-9.442019995E+0	5.420372166E-1	8.310697923E-3	6.392559135E-5
-9.432682468E+0	5.431960110E-1	6.700832445E-3	6.873525047E-5
-9.421735023E+0	5.439685406E-1	7.666751731E-3	6.649109932E-5
-9.412397497E+0	5.448376364E-1	7.022805540E-3	7.033668600E-5
-9.403381955E+0	5.453848450E-1	7.666751731E-3	6.831748478E-5
-9.394044431E+0	5.462539409E-1	6.378859350E-3	7.126326937E-5
-9.385028890E+0	5.468333382E-1	3.803074588E-3	7.427868368E-5
-9.376335334E+0	5.471874143E-1	5.734913159E-3	6.796399076E-5
-9.367319795E+0	5.477668116E-1	4.768993873E-3	7.022956655E-5
-9.358626239E+0	5.483783977E-1	3.803074588E-3	6.821572135E-5
-9.349610701E+0	5.488612288E-1	4.447020778E-3	7.201846174E-5
-9.341239131E+0	5.497625136E-1	5.412940064E-3	7.077587578E-5
-9.332545577E+0	5.501809673E-1	5.412940064E-3	6.974217308E-5
-9.324174007E+0	5.508891197E-1	3.481101493E-3	6.657679481E-5
-9.315480455E+0	5.515328946E-1	4.125047683E-3	7.071696008E-5
-9.307108886E+0	5.516616496E-1	5.734913159E-3	7.420905598E-5
-9.297449385E+0	5.528204445E-1	2.837155303E-3	6.826928105E-5
-9.289399801E+0	5.536251632E-1	1.871236018E-3	7.070624813E-5
-9.281028234E+0	5.542045607E-1	2.193209113E-3	7.090977511E-5
-9.272978651E+0	5.549770907E-1	3.803074588E-3	6.861741912E-5
-9.264285101E+0	5.553633558E-1	2.837155303E-3	6.753551320E-5
-9.256879486E+0	5.561358858E-1	2.515182208E-3	6.692493275E-5
-9.247219988E+0	5.567474722E-1	2.515182208E-3	7.031526211E-5
-9.238848423E+0	5.571015485E-1	3.481101493E-3	6.979573280E-5
-9.229832893E+0	5.580350224E-1	3.159128398E-3	6.928155952E-5
-9.222749262E+0	5.585500425E-1	1.227289828E-3	7.177208691E-5
-9.213733733E+0	5.595478940E-1	2.837155303E-3	6.469149441E-5
-9.205040187E+0	5.600629142E-1	1.227289828E-3	6.980644474E-5
-9.197634575E+0	5.604491793E-1	1.227289828E-3	7.164354352E-5
-9.188619047E+0	5.610607657E-1	1.871236018E-3	7.145608443E-5
-9.180569469E+0	5.613826534E-1	3.481101493E-3	7.168103534E-5
-9.171875926E+0	5.616723522E-1	5.833436390E-4	7.057234880E-5
-9.163826349E+0	5.627667702E-1	1.549262923E-3	6.954935809E-5
-9.155132807E+0	5.631852241E-1	2.515182208E-3	7.129004924E-5
-9.146761248E+0	5.634749230E-1	2.515182208E-3	6.949579838E-5
-9.137745723E+0	5.636036780E-1	1.871236018E-3	6.857992733E-5
-9.131306063E+0	5.642152646E-1	4.768993873E-3	6.663035449E-5
-9.121968557E+0	5.647302849E-1	1.871236018E-3	7.180957873E-5
-9.113597000E+0	5.652453052E-1	2.193209113E-3	6.955471407E-5
-9.104903460E+0	5.655028153E-1	2.193209113E-3	7.160605170E-5
-9.095565956E+0	5.659212693E-1	3.481101493E-3	7.258083912E-5
-9.089770264E+0	5.661787795E-1	5.833436390E-4	6.658750674E-5
-9.080432760E+0	5.663075345E-1	9.053167337E-4	7.168639132E-5
-9.072383188E+0	5.668225549E-1	2.515182208E-3	7.026705836E-5
-9.064011634E+0	5.670156875E-1	1.871236018E-3	7.100618263E-5
-9.055640081E+0	5.670800650E-1	4.447020778E-3	7.243087181E-5
-9.047268528E+0	5.676594629E-1	4.447020778E-3	7.008495529E-5
-9.038896975E+0	5.678525955E-1	1.871236018E-3	7.232375231E-5
-9.031491371E+0	5.678204068E-1	3.159128398E-3	7.060448464E-5
-9.023441803E+0	5.678847843E-1	3.481101493E-3	7.128469326E-5
-9.014748269E+0	5.680779169E-1	1.871236018E-3	7.319142037E-5
-9.006054735E+0	5.682388608E-1	6.056886254E-3	6.710167971E-5
-8.998327151E+0	5.684963710E-1	2.515182208E-3	7.010102321E-5
-8.988667670E+0	5.683676159E-1	2.193209113E-3	6.991356418E-5
-8.981906034E+0	5.687538812E-1	4.125047683E-3	7.047058532E-5
-8.973534486E+0	5.686251261E-1	2.515182208E-3	7.704772505E-5
-8.965162938E+0	5.686573149E-1	5.090966968E-3	7.205595356E-5
-8.957113372E+0	5.690113914E-1	3.481101493E-3	7.335745563E-5
-8.948741825E+0	5.690435802E-1	3.803074588E-3	7.146144040E-5
-8.940370278E+0	5.692367128E-1	3.803074588E-3	7.330925185E-5
-8.931676749E+0	5.690113914E-1	3.159128398E-3	7.608364854E-5
-8.923949169E+0	5.692689016E-1	5.734913159E-3	6.778188779E-5
-8.915899606E+0	5.692367128E-1	4.768993873E-3	7.273080644E-5
-8.907850044E+0	5.692045240E-1	5.090966968E-3	7.225948061E-5
-8.899800482E+0	5.693332791E-1	4.125047683E-3	7.215236111E-5
-8.890784973E+0	5.693976567E-1	3.159128398E-3	7.702630113E-5
-8.883701359E+0	5.694942230E-1	7.344778636E-3	6.943688269E-5
-8.875329816E+0	5.695586005E-1	3.803074588E-3	7.411800436E-5
-8.867280256E+0	5.694298454E-1	8.954644114E-3	6.994034404E-5
-8.858264749E+0	5.691401465E-1	4.447020778E-3	7.261297498E-5
-8.849893208E+0	5.694942230E-1	4.447020778E-3	7.585334141E-5
-8.842165631E+0	5.694942230E-1	7.344778636E-3	7.809214154E-5
-8.833150126E+0	5.694942230E-1	7.344778636E-3	7.248978754E-5
-8.825744533E+0	5.697517332E-1	9.920563401E-3	7.146679638E-5
-8.817694975E+0	5.696551669E-1	9.276617210E-3	7.293968949E-5
-8.808679472E+0	5.694620342E-1	1.088648269E-2	6.598763835E-5
-8.801273880E+0	5.695907893E-1	1.024253650E-2	7.545699893E-5
-8.793868288E+0	5.697517332E-1	9.276617210E-3	7.141859261E-5
-8.785174768E+0	5.698161107E-1	9.598590305E-3	7.340565942E-5
-8.776803231E+0	5.696551669E-1	9.598590305E-3	7.145072845E-5
-8.768753676E+0	5.697839220E-1	8.310697923E-3	7.612649638E-5
-8.760704122E+0	5.698161107E-1	1.120845578E-2	7.049200921E-5
-8.752654568E+0	5.696873556E-1	1.153042888E-2	7.278436620E-5
-8.744605014E+0	5.698482995E-1	1.539410604E-2	7.276294229E-5
-8.736233479E+0	5.696551669E-1	1.410621365E-2	7.184171458E-5
-8.727217981E+0	5.696551669E-1	1.539410604E-2	7.065804437E-5
-8.719168429E+0	5.698482995E-1	1.636002532E-2	7.591761316E-5
-8.710796895E+0	5.700736210E-1	1.442818675E-2	7.283256998E-5
-8.703713290E+0	5.702023761E-1	1.249634817E-2	7.113472600E-5
-8.694697793E+0	5.700414322E-1	1.442818675E-2	7.238266804E-5
-8.687614189E+0	5.697839220E-1	1.603805223E-2	6.989749627E-5
-8.678598693E+0	5.692689016E-1	1.249634817E-2	6.649109932E-5
-8.670549144E+0	5.701701873E-1	1.571607913E-2	7.455719453E-5
-8.662499595E+0	5.703955087E-1	1.700397152E-2	7.278972217E-5
-8.654450046E+0	5.704920750E-1	1.700397152E-2	7.360383056E-5
-8.645756535E+0	5.704598863E-1	1.603805223E-2	7.025634641E-5
-8.637063023E+0	5.704276975E-1	1.603805223E-2	7.586405337E-5
-8.630623385E+0	5.705242638E-1	1.636002532E-2	7.354491481E-5
-8.621607893E+0	5.704276975E-1	1.442818675E-2	7.209344539E-5
-8.612592401E+0	5.703633199E-1	1.539410604E-2	7.168103534E-5
-8.606152765E+0	5.706208302E-1	1.668199842E-2	7.564981418E-5
-8.598103219E+0	5.707495853E-1	1.281832126E-2	7.591761316E-5
-8.589087729E+0	5.709105291E-1	1.314029436E-2	7.217378501E-5
-8.581682148E+0	5.707495853E-1	1.539410604E-2	7.379128975E-5
-8.572988640E+0	5.707173965E-1	1.249634817E-2	7.331996380E-5
-8.564617115E+0	5.709105291E-1	1.442818675E-2	7.207737746E-5
-8.556245590E+0	5.709749067E-1	1.410621365E-2	6.936189909E-5
-8.548196047E+0	5.712002281E-1	1.249634817E-2	7.125791339E-5
-8.541756413E+0	5.712646057E-1	1.281832126E-2	7.348599907E-5
-8.533384889E+0	5.711036618E-1	1.281832126E-2	7.159533976E-5
-8.524691384E+0	5.709749067E-1	1.636002532E-2	7.020278669E-5
-8.516641843E+0	5.712324169E-1	1.539410604E-2	7.107581029E-5
-8.507948339E+0	5.712646057E-1	1.185240198E-2	7.181493470E-5
-8.499254836E+0	5.715543047E-1	1.281832126E-2	7.417692011E-5
-8.492171241E+0	5.714577384E-1	1.153042888E-2	7.225948061E-5
-8.483477738E+0	5.688504475E-1	1.314029436E-2	6.767476840E-5
-8.476072163E+0	5.718761925E-1	9.920563401E-3	7.208808941E-5
-8.467700643E+0	5.717152486E-1	8.310697923E-3	7.270402656E-5
-8.459651104E+0	5.717796261E-1	1.185240198E-2	7.188991835E-5
-8.449991659E+0	5.716186823E-1	8.310697923E-3	7.173995106E-5
-8.443230048E+0	5.717474374E-1	1.024253650E-2	7.184707055E-5
-8.435180511E+0	5.721015139E-1	1.185240198E-2	6.704812003E-5
-8.427130975E+0	5.723268354E-1	9.920563401E-3	7.255941522E-5
-8.418759457E+0	5.712646057E-1	1.024253650E-2	7.111865808E-5
-8.409743978E+0	5.719727588E-1	7.022805540E-3	7.581584955E-5
-8.402338405E+0	5.717796261E-1	6.056886254E-3	7.462682224E-5
-8.393966889E+0	5.721658915E-1	7.666751731E-3	7.619612412E-5
-8.386239337E+0	5.724555905E-1	5.090966968E-3	7.247371962E-5
-8.377867821E+0	5.724234017E-1	9.276617210E-3	7.233982024E-5
-8.369496307E+0	5.722302691E-1	6.056886254E-3	7.275223034E-5
-8.361124792E+0	5.721980803E-1	5.412940064E-3	7.176673093E-5
-8.354041204E+0	5.721658915E-1	8.310697923E-3	7.146679638E-5
-8.345347709E+0	5.721015139E-1	4.768993873E-3	7.232910828E-5
-8.337298177E+0	5.723912130E-1	6.056886254E-3	7.281650205E-5
-8.329248646E+0	5.723268354E-1	5.412940064E-3	7.467502605E-5
-8.321199115E+0	5.724555905E-1	6.378859350E-3	7.463217822E-5
-8.313471566E+0	5.724877793E-1	5.734913159E-3	7.129004924E-5
-8.304778074E+0	5.725521569E-1	5.734913159E-3	7.232375231E-5
-8.297050525E+0	5.726487232E-1	4.768993873E-3	7.487855322E-5
-8.288679015E+0	5.723590242E-1	6.378859350E-3	7.065268840E-5
-8.281595429E+0	5.724234017E-1	7.666751731E-3	7.040631365E-5
-8.272257977E+0	5.725843456E-1	6.056886254E-3	7.048665324E-5
-8.263886468E+0	5.727131008E-1	7.666751731E-3	7.313786061E-5
-8.255836940E+0	5.727452895E-1	8.954644114E-3	7.263439888E-5
-8.247143451E+0	5.725521569E-1	6.056886254E-3	7.270402656E-5
-8.239737886E+0	5.725521569E-1	5.412940064E-3	7.685490973E-5
-8.232010341E+0	5.724555905E-1	8.310697923E-3	7.173459509E-5
-8.222994872E+0	5.728096671E-1	9.276617210E-3	7.201846174E-5
-8.215911290E+0	5.727774783E-1	9.276617210E-3	7.341637138E-5
-8.207217803E+0	5.727774783E-1	7.666751731E-3	7.509279236E-5
-8.199168278E+0	5.726809120E-1	7.022805540E-3	7.364667837E-5
-8.191440735E+0	5.725199681E-1	8.632671018E-3	6.944759463E-5
-8.182747249E+0	5.727131008E-1	1.314029436E-2	7.398410493E-5
-8.175663669E+0	5.726809120E-1	1.410621365E-2	7.299860523E-5
-8.166004241E+0	5.725843456E-1	1.410621365E-2	7.472858583E-5
-8.158920661E+0	5.727774783E-1	1.217437507E-2	7.269331461E-5
-8.150871139E+0	5.729062334E-1	1.571607913E-2	7.501245268E-5
-8.142177656E+0	5.727131008E-1	1.539410604E-2	7.289684169E-5
-8.134128135E+0	5.725199681E-1	1.571607913E-2	7.227019256E-5
-8.126078614E+0	5.724234017E-1	1.507213294E-2	7.121506560E-5
-8.118673055E+0	5.721980803E-1	1.893581010E-2	6.742303785E-5
-8.109979573E+0	5.727131008E-1	1.668199842E-2	7.131147313E-5
-8.102252034E+0	5.730027998E-1	1.668199842E-2	7.346457516E-5
-8.094524496E+0	5.725521569E-1	1.732594461E-2	7.343243931E-5
-8.085831015E+0	5.725521569E-1	1.668199842E-2	7.441258313E-5
-8.078747439E+0	5.723268354E-1	1.861383700E-2	7.115079392E-5
-8.069088018E+0	5.725843456E-1	1.700397152E-2	7.198096992E-5
-8.061360481E+0	5.728096671E-1	1.668199842E-2	7.210951331E-5
-8.053954925E+0	5.727131008E-1	1.442818675E-2	7.337887954E-5
-8.045583427E+0	5.727131008E-1	1.410621365E-2	7.464824616E-5
-8.036889950E+0	5.728418559E-1	1.636002532E-2	6.799077061E-5
-8.029484395E+0	5.727774783E-1	1.539410604E-2	7.183635860E-5
-8.020790918E+0	5.729706110E-1	1.636002532E-2	7.451970268E-5
-8.013385364E+0	5.726809120E-1	1.442818675E-2	7.361454251E-5
-8.004369907E+0	5.725843456E-1	1.603805223E-2	7.197561394E-5
-7.996964354E+0	5.729062334E-1	1.346226746E-2	7.506601247E-5
-7.989236821E+0	5.727452895E-1	1.636002532E-2	7.609436050E-5
-7.980543346E+0	5.729062334E-1	1.668199842E-2	7.056699283E-5
-7.972815813E+0	5.726809120E-1	1.700397152E-2	7.103296250E-5
-7.963800359E+0	5.724555905E-1	1.636002532E-2	7.463753420E-5
-7.956716788E+0	5.726809120E-1	1.281832126E-2	7.699952122E-5
-7.948989257E+0	5.726809120E-1	1.539410604E-2	7.306823292E-5
-7.939973804E+0	5.728418559E-1	1.732594461E-2	7.199703784E-5
-7.932568253E+0	5.729706110E-1	1.636002532E-2	7.476072170E-5
-7.923552801E+0	5.729062334E-1	1.571607913E-2	7.304680901E-5
-7.913893389E+0	5.728418559E-1	1.603805223E-2	6.850494374E-5
-7.907453781E+0	5.728418559E-1	1.700397152E-2	7.485177333E-5
-7.899726252E+0	5.727452895E-1	1.346226746E-2	7.524275977E-5
-7.891354762E+0	5.728096671E-1	1.571607913E-2	7.220592086E-5
-7.883305253E+0	5.728418559E-1	1.185240198E-2	7.544628697E-5
-7.875577725E+0	5.729384222E-1	9.276617210E-3	7.645856716E-5
-7.867206237E+0	5.729062334E-1	1.346226746E-2	7.225412463E-5
-7.860444650E+0	5.726809120E-1	1.475015984E-2	7.370023814E-5
-7.850785242E+0	5.728418559E-1	1.346226746E-2	7.250049949E-5
-7.842735735E+0	5.726487232E-1	1.314029436E-2	7.785112232E-5
-7.835330189E+0	5.726809120E-1	1.346226746E-2	7.907764247E-5
-7.826958703E+0	5.730993661E-1	1.378424055E-2	7.252727937E-5
-7.818909197E+0	5.731959325E-1	1.410621365E-2	7.352349091E-5
-7.810859692E+0	5.728418559E-1	1.249634817E-2	7.206130954E-5
-7.803132167E+0	5.727774783E-1	1.185240198E-2	7.704772505E-5
-7.793794742E+0	5.727131008E-1	1.185240198E-2	7.695667337E-5
-7.786067218E+0	5.728096671E-1	1.346226746E-2	7.277901022E-5
-7.778339694E+0	5.730671773E-1	1.314029436E-2	7.498031681E-5
-7.770934151E+0	5.729062334E-1	1.281832126E-2	7.292897754E-5
-7.762240688E+0	5.729384222E-1	1.378424055E-2	7.255405925E-5
-7.754513166E+0	5.728096671E-1	1.217437507E-2	7.607293658E-5
-7.746785644E+0	5.728096671E-1	1.346226746E-2	7.550520274E-5
-7.738092182E+0	5.728740447E-1	1.281832126E-2	7.317535244E-5
-7.729720700E+0	5.727774783E-1	1.249634817E-2	7.351813493E-5
-7.721027239E+0	5.729384222E-1	1.056450959E-2	7.726196431E-5
-7.713943679E+0	5.728418559E-1	1.185240198E-2	6.994570002E-5
-7.705572198E+0	5.728418559E-1	1.249634817E-2	7.296646937E-5
-7.698488639E+0	5.729384222E-1	1.153042888E-2	7.093119901E-5
-7.689473199E+0	5.728418559E-1	1.378424055E-2	7.522133585E-5
-7.681423700E+0	5.727774783E-1	1.314029436E-2	7.206130954E-5
-7.674340141E+0	5.727452895E-1	1.217437507E-2	7.066875632E-5
-7.665324703E+0	5.729706110E-1	1.475015984E-2	7.600330884E-5
-7.657597185E+0	5.730993661E-1	1.314029436E-2	7.259155107E-5
-7.648581748E+0	5.729384222E-1	1.475015984E-2	7.402159677E-5
-7.640854231E+0	5.728740447E-1	1.281832126E-2	7.562839027E-5
-7.633126714E+0	5.729062334E-1	1.217437507E-2	7.754583134E-5
-7.624433258E+0	5.728418559E-1	1.539410604E-2	7.355562677E-5
-7.617027721E+0	5.727452895E-1	1.475015984E-2	7.154178001E-5
-7.608978226E+0	5.727774783E-1	1.281832126E-2	7.491604507E-5
-7.601894670E+0	5.728418559E-1	1.507213294E-2	7.627646382E-5
-7.591913296E+0	5.729384222E-1	1.539410604E-2	6.886914974E-5
-7.584507761E+0	5.728096671E-1	1.507213294E-2	7.519991194E-5
-7.576458267E+0	5.727452895E-1	1.378424055E-2	7.421976793E-5
-7.568086794E+0	5.727774783E-1	1.410621365E-2	7.355027079E-5
-7.560037300E+0	5.726809120E-1	1.378424055E-2	7.508208041E-5
-7.552309787E+0	5.729706110E-1	1.636002532E-2	7.266117876E-5
-7.544260295E+0	5.730993661E-1	1.507213294E-2	7.353955884E-5
-7.535888823E+0	5.729706110E-1	1.442818675E-2	7.366810228E-5
-7.527517351E+0	5.723912130E-1	1.314029436E-2	7.140252469E-5
-7.519467860E+0	5.729384222E-1	1.346226746E-2	7.323962415E-5
-7.512062328E+0	5.727452895E-1	1.281832126E-2	7.571408594E-5
-7.503368878E+0	5.730671773E-1	1.475015984E-2	7.397339297E-5
-7.495641367E+0	5.731959325E-1	1.346226746E-2	7.005817543E-5
-7.487913857E+0	5.727774783E-1	1.507213294E-2	7.276294229E-5
-7.478576449E+0	5.729062334E-1	1.217437507E-2	7.690846954E-5
-7.471814878E+0	5.728096671E-1	1.507213294E-2	6.957078198E-5
-7.462477471E+0	5.728740447E-1	1.346226746E-2	7.319677634E-5
-7.455715901E+0	5.728418559E-1	1.507213294E-2	7.361454251E-5
-7.446700474E+0	5.728096671E-1	1.442818675E-2	7.484106137E-5
-7.439294946E+0	5.727131008E-1	1.024253650E-2	7.387698538E-5
-7.430601499E+0	5.728740447E-1	1.346226746E-2	7.612114040E-5
-7.422230033E+0	5.725843456E-1	1.314029436E-2	7.386091745E-5
-7.415468464E+0	5.728096671E-1	1.442818675E-2	7.407515654E-5
-7.405809081E+0	5.725521569E-1	1.410621365E-2	7.274151839E-5
-7.397115636E+0	5.725843456E-1	1.185240198E-2	7.654961882E-5
-7.390354068E+0	5.728096671E-1	1.442818675E-2	7.731552412E-5
-7.381660624E+0	5.729384222E-1	1.442818675E-2	7.400552883E-5
-7.373933119E+0	5.730349886E-1	1.539410604E-2	7.131682911E-5
-7.365883635E+0	5.728418559E-1	1.539410604E-2	7.351277895E-5
-7.358156130E+0	5.726809120E-1	1.571607913E-2	7.455719453E-5
-7.350106646E+0	5.727452895E-1	1.378424055E-2	7.618005618E-5
-7.342379142E+0	5.727452895E-1	1.281832126E-2	7.511957226E-5
-7.333685701E+0	5.728418559E-1	1.603805223E-2	7.312714865E-5
-7.325636218E+0	5.727452895E-1	1.539410604E-2	7.355027079E-5
-7.317908715E+0	5.727131008E-1	1.539410604E-2	7.295040145E-5
-7.310503192E+0	5.727131008E-1	1.796989081E-2	6.881023406E-5
-7.301487773E+0	5.727774783E-1	1.442818675E-2	7.478750159E-5
-7.293438292E+0	5.725199681E-1	1.475015984E-2	7.388234136E-5
-7.285710790E+0	5.726165344E-1	1.636002532E-2	7.387698538E-5
-7.277983289E+0	5.728418559E-1	1.281832126E-2	7.491604507E-5
-7.269933809E+0	5.730027998E-1	1.378424055E-2	7.446614290E-5
-7.261562350E+0	5.728096671E-1	1.507213294E-2	7.470716192E-5
-7.253834850E+0	5.726809120E-1	1.507213294E-2	7.128469326E-5
-7.244497455E+0	5.725843456E-1	1.217437507E-2	7.544628697E-5
-7.236447976E+0	5.726165344E-1	1.410621365E-2	7.645856716E-5
-7.229686414E+0	5.726487232E-1	1.475015984E-2	7.467502605E-5
-7.220992978E+0	5.726165344E-1	1.314029436E-2	7.412336034E-5
-7.213587459E+0	5.727774783E-1	1.249634817E-2	7.335209966E-5
-7.205216003E+0	5.726165344E-1	1.024253650E-2	7.402159677E-5
-7.197166526E+0	5.721658915E-1	1.281832126E-2	7.242551584E-5
-7.188795070E+0	5.723912130E-1	1.056450959E-2	7.139181274E-5
-7.180101636E+0	5.724234017E-1	1.281832126E-2	7.401624079E-5
-7.172696119E+0	5.727131008E-1	1.056450959E-2	7.586940935E-5
-7.164324664E+0	5.727131008E-1	1.024253650E-2	7.285399388E-5
-7.157241126E+0	5.726487232E-1	8.954644114E-3	7.352884688E-5
-7.148869673E+0	5.725199681E-1	1.088648269E-2	7.673172217E-5
-7.141142177E+0	5.727131008E-1	1.153042888E-2	7.531238749E-5
-7.132448746E+0	5.727131008E-1	1.024253650E-2	7.617470020E-5
-7.123433335E+0	5.725521569E-1	9.598590305E-3	7.369488216E-5
-7.115705841E+0	5.722624578E-1	1.088648269E-2	6.923335578E-5
-7.108300326E+0	5.725521569E-1	1.056450959E-2	7.076516383E-5
-7.099928875E+0	5.726809120E-1	9.598590305E-3	7.366274630E-5
-7.091557424E+0	5.727774783E-1	1.120845578E-2	7.269867058E-5
-7.083185973E+0	5.725199681E-1	9.920563401E-3	7.237195609E-5
-7.075136502E+0	5.723268354E-1	9.276617210E-3	7.729410020E-5
-7.068052967E+0	5.726809120E-1	8.310697923E-3	7.460004235E-5
-7.060003496E+0	5.727131008E-1	7.344778636E-3	7.597117296E-5
-7.051310068E+0	5.722302691E-1	6.700832445E-3	7.357169470E-5
-7.042938619E+0	5.726165344E-1	7.666751731E-3	7.432153151E-5
-7.035855086E+0	5.724555905E-1	8.310697923E-3	7.870272361E-5
-7.026839680E+0	5.724234017E-1	7.344778636E-3	7.555876253E-5
-7.019112190E+0	5.724877793E-1	9.920563401E-3	7.559625439E-5
-7.011062722E+0	5.722946466E-1	8.632671018E-3	7.189527432E-5
-7.002047317E+0	5.722624578E-1	7.988724827E-3	7.480892550E-5
-6.993997849E+0	5.723912130E-1	6.056886254E-3	7.767437491E-5
-6.986270360E+0	5.722624578E-1	8.310697923E-3	7.562839027E-5
-6.978864851E+0	5.725843456E-1	1.153042888E-2	7.556947449E-5
-6.971137362E+0	5.723912130E-1	1.088648269E-2	7.235588816E-5
-6.962121960E+0	5.722946466E-1	1.217437507E-2	7.615863226E-5
-6.954716451E+0	5.723590242E-1	1.056450959E-2	7.029919419E-5
-6.946023028E+0	5.724555905E-1	8.954644114E-3	7.514099617E-5
-6.937973562E+0	5.726165344E-1	1.153042888E-2	7.389305331E-5
-6.930568054E+0	5.725199681E-1	1.088648269E-2	7.344315126E-5
-6.921874632E+0	5.723912130E-1	9.920563401E-3	7.522669183E-5
-6.914791104E+0	5.723590242E-1	1.185240198E-2	7.268795863E-5
-6.906419661E+0	5.723268354E-1	1.507213294E-2	7.179351081E-5
-6.898048219E+0	5.724234017E-1	1.281832126E-2	7.456255051E-5
-6.889998755E+0	5.722946466E-1	1.314029436E-2	7.562839027E-5
-6.881305335E+0	5.724234017E-1	1.442818675E-2	7.435366737E-5
-6.873899829E+0	5.722624578E-1	1.378424055E-2	7.363061044E-5
-6.866172345E+0	5.721658915E-1	1.281832126E-2	7.228090451E-5
-6.857478926E+0	5.723590242E-1	1.539410604E-2	7.546771089E-5
-6.849429465E+0	5.723912130E-1	1.281832126E-2	7.303609706E-5
-6.841058025E+0	5.721980803E-1	1.378424055E-2	7.530703152E-5
-6.833652521E+0	5.722302691E-1	1.442818675E-2	6.853172359E-5
-6.825281082E+0	5.724877793E-1	1.314029436E-2	7.281114607E-5
-6.816909643E+0	5.720693252E-1	1.378424055E-2	7.477678963E-5
-6.809182161E+0	5.722302691E-1	1.571607913E-2	7.380200170E-5
-6.801776658E+0	5.721337027E-1	1.378424055E-2	7.587476533E-5
-6.792761264E+0	5.720693252E-1	1.442818675E-2	7.176137496E-5
